Data from aliejus;silicis;NAmW;1;NA;_Fluorescence_14-17-46-547.txt Node
Date: Wed Jul 20 14:17:46 EEST 2016
User: darbas
Spectrometer: USB2E5056
Trigger mode: 4
Integration Time (sec): 1.000000E0
Scans to average: 1
Electric dark correction enabled: true
Nonlinearity correction enabled: false
Boxcar width: 0
XAxis mode: Wavelengths
Number of Pixels in Spectrum: 2048
>>>>>Begin Spectral Data<<<<<
340.19	-1.11
340.563	6.89
340.935	-4.11
341.308	-2.11
341.68	0.89
342.052	0.89
342.425	-10.11
342.797	-3.11
343.17	-6.11
343.542	0.89
343.914	-1.11
344.286	0.89
344.659	4.89
345.031	10.89
345.403	-5.11
345.775	1.89
346.147	0.89
346.519	3.89
346.891	-2.11
347.263	-10.11
347.635	-1.11
348.007	-2.11
348.379	0.89
348.751	-5.11
349.123	-3.11
349.494	0.89
349.866	0.89
350.238	0.89
350.609	-8.11
350.981	5.89
351.353	1.89
351.724	5.89
352.096	-0.11
352.467	1.89
352.839	-3.11
353.21	1.89
353.582	7.89
353.953	0.89
354.324	4.89
354.696	-1.11
355.067	2.89
355.438	-4.11
355.809	-5.11
356.181	19.89
356.552	10.89
356.923	1.89
357.294	-5.11
357.665	9.89
358.036	-1.11
358.407	8.89
358.778	-3.11
359.149	-14.11
359.52	-5.11
359.891	-0.11
360.261	7.89
360.632	-0.11
361.003	5.89
361.374	0.89
361.744	9.89
362.115	12.89
362.485	3.89
362.856	2.89
363.227	1.89
363.597	5.89
363.968	11.89
364.338	13.89
364.708	1.89
365.079	7.89
365.449	6.89
365.819	3.89
366.19	5.89
366.56	4.89
366.93	2.89
367.3	1.89
367.67	5.89
368.04	7.89
368.411	-0.11
368.781	11.89
369.151	9.89
369.521	20.89
369.89	34.89
370.26	30.89
370.63	51.89
371	60.89
371.37	74.89
371.74	88.89
372.109	105.89
372.479	128.89
372.849	125.89
373.218	136.89
373.588	141.89
373.957	154.89
374.327	158.89
374.696	170.89
375.066	186.89
375.435	177.89
375.805	186.89
376.174	207.89
376.543	201.89
376.913	209.89
377.282	217.89
377.651	222.89
378.02	240.89
378.389	253.89
378.758	255.89
379.127	258.89
379.497	274.89
379.866	285.89
380.234	298.89
380.603	311.89
380.972	328.89
381.341	321.89
381.71	319.89
382.079	341.89
382.448	348.89
382.816	382.89
383.185	376.89
383.554	374.89
383.922	395.89
384.291	406.89
384.659	413.89
385.028	411.89
385.396	435.89
385.765	446.89
386.133	450.89
386.502	467.89
386.87	469.89
387.238	482.89
387.607	485.89
387.975	495.89
388.343	519.89
388.711	527.89
389.079	520.89
389.447	552.89
389.815	536.89
390.184	574.89
390.552	597.89
390.919	597.89
391.287	595.89
391.655	585.89
392.023	655.89
392.391	634.89
392.759	643.89
393.127	654.89
393.494	670.89
393.862	673.89
394.23	684.89
394.597	692.89
394.965	729.89
395.332	714.89
395.7	752.89
396.067	757.89
396.435	785.89
396.802	770.89
397.17	795.89
397.537	802.89
397.904	795.89
398.271	810.89
398.639	809.89
399.006	835.89
399.373	835.89
399.74	865.89
400.107	842.89
400.474	890.89
400.841	842.89
401.208	953.89
401.575	875.89
401.942	932.89
402.309	912.89
402.676	916.89
403.043	935.89
403.409	958.89
403.776	988.89
404.143	954.89
404.509	996.89
404.876	1013.89
405.243	968.89
405.609	1010.89
405.976	1039.89
406.342	1044.89
406.709	1046.89
407.075	1064.89
407.442	1053.89
407.808	1073.89
408.174	1112.89
408.54	1096.89
408.907	1107.89
409.273	1095.89
409.639	1105.89
410.005	1162.89
410.371	1113.89
410.737	1179.89
411.103	1191.89
411.469	1226.89
411.835	1211.89
412.201	1230.89
412.567	1169.89
412.933	1231.89
413.299	1213.89
413.665	1262.89
414.03	1268.89
414.396	1233.89
414.762	1231.89
415.127	1254.89
415.493	1219.89
415.858	1273.89
416.224	1255.89
416.589	1292.89
416.955	1317.89
417.32	1299.89
417.686	1297.89
418.051	1346.89
418.416	1312.89
418.782	1319.89
419.147	1351.89
419.512	1338.89
419.877	1304.89
420.242	1363.89
420.607	1328.89
420.973	1360.89
421.338	1378.89
421.703	1367.89
422.067	1374.89
422.432	1416.89
422.797	1419.89
423.162	1386.89
423.527	1393.89
423.892	1417.89
424.256	1428.89
424.621	1375.89
424.986	1439.89
425.35	1452.89
425.715	1414.89
426.08	1444.89
426.444	1458.89
426.809	1427.89
427.173	1423.89
427.537	1477.89
427.902	1515.89
428.266	1479.89
428.63	1491.89
428.995	1506.89
429.359	1451.89
429.723	1509.89
430.087	1504.89
430.451	1450.89
430.815	1484.89
431.179	1583.89
431.543	1557.89
431.907	1613.89
432.271	1542.89
432.635	1518.89
432.999	1568.89
433.363	1563.89
433.727	1534.89
434.091	1570.89
434.454	1561.89
434.818	1551.89
435.182	1593.89
435.545	1575.89
435.909	1611.89
436.272	1664.89
436.636	1665.89
436.999	1599.89
437.363	1567.89
437.726	1609.89
438.089	1585.89
438.453	1644.89
438.816	1725.89
439.179	1675.89
439.542	1630.89
439.906	1646.89
440.269	1633.89
440.632	1615.89
440.995	1639.89
441.358	1641.89
441.721	1650.89
442.084	1654.89
442.447	1684.89
442.81	1689.89
443.172	1689.89
443.535	1629.89
443.898	1671.89
444.261	1609.89
444.623	1647.89
444.986	1633.89
445.349	1584.89
445.711	1624.89
446.074	1681.89
446.436	1628.89
446.799	1614.89
447.161	1610.89
447.524	1575.89
447.886	1561.89
448.248	1526.89
448.611	1617.89
448.973	1635.89
449.335	1643.89
449.697	1604.89
450.059	1567.89
450.421	1585.89
450.784	1563.89
451.146	1594.89
451.508	1594.89
451.869	1636.89
452.231	1583.89
452.593	1524.89
452.955	1534.89
453.317	1611.89
453.679	1601.89
454.04	1593.89
454.402	1586.89
454.764	1560.89
455.125	1577.89
455.487	1596.89
455.848	1604.89
456.21	1612.89
456.571	1534.89
456.933	1561.89
457.294	1549.89
457.656	1565.89
458.017	1570.89
458.378	1533.89
458.739	1551.89
459.101	1603.89
459.462	1622.89
459.823	1524.89
460.184	1582.89
460.545	1580.89
460.906	1602.89
461.267	1611.89
461.628	1577.89
461.989	1633.89
462.35	1579.89
462.711	1633.89
463.071	1633.89
463.432	1627.89
463.793	1692.89
464.154	1613.89
464.514	1714.89
464.875	1639.89
465.235	1665.89
465.596	1661.89
465.956	1687.89
466.317	1742.89
466.677	1777.89
467.038	1674.89
467.398	1754.89
467.758	1737.89
468.119	1754.89
468.479	1758.89
468.839	1734.89
469.199	1857.89
469.559	1789.89
469.919	1817.89
470.279	1793.89
470.639	1878.89
470.999	1875.89
471.359	1854.89
471.719	1875.89
472.079	1932.89
472.439	1930.89
472.799	1927.89
473.158	1946.89
473.518	2036.89
473.878	2025.89
474.237	2069.89
474.597	2101.89
474.956	2082.89
475.316	2068.89
475.675	2156.89
476.035	2094.89
476.394	2140.89
476.753	2168.89
477.113	2200.89
477.472	2218.89
477.831	2220.89
478.191	2245.89
478.55	2248.89
478.909	2327.89
479.268	2307.89
479.627	2351.89
479.986	2320.89
480.345	2392.89
480.704	2362.89
481.063	2370.89
481.422	2383.89
481.78	2408.89
482.139	2454.89
482.498	2459.89
482.857	2470.89
483.215	2429.89
483.574	2502.89
483.932	2504.89
484.291	2494.89
484.65	2538.89
485.008	2529.89
485.366	2541.89
485.725	2518.89
486.083	2547.89
486.442	2549.89
486.8	2543.89
487.158	2571.89
487.516	2572.89
487.874	2577.89
488.233	2593.89
488.591	2586.89
488.949	2568.89
489.307	2598.89
489.665	2581.89
490.023	2584.89
490.38	2569.89
490.738	2601.89
491.096	2594.89
491.454	2585.89
491.812	2591.89
492.169	2586.89
492.527	2578.89
492.885	2566.89
493.242	2588.89
493.6	2544.89
493.957	2538.89
494.315	2548.89
494.672	2554.89
495.03	2566.89
495.387	2553.89
495.744	2538.89
496.102	2507.89
496.459	2537.89
496.816	2512.89
497.173	2509.89
497.53	2502.89
497.887	2502.89
498.244	2470.89
498.601	2456.89
498.958	2428.89
499.315	2450.89
499.672	2453.89
500.029	2429.89
500.386	2406.89
500.743	2407.89
501.099	2378.89
501.456	2348.89
501.813	2381.89
502.169	2341.89
502.526	2389.89
502.882	2340.89
503.239	2339.89
503.595	2343.89
503.952	2320.89
504.308	2282.89
504.664	2285.89
505.021	2306.89
505.377	2252.89
505.733	2254.89
506.089	2259.89
506.445	2242.89
506.802	2235.89
507.158	2219.89
507.514	2191.89
507.87	2173.89
508.226	2203.89
508.581	2161.89
508.937	2140.89
509.293	2161.89
509.649	2124.89
510.005	2131.89
510.36	2098.89
510.716	2118.89
511.072	2095.89
511.427	2080.89
511.783	2071.89
512.138	2056.89
512.494	2053.89
512.849	2021.89
513.205	2018.89
513.56	2031.89
513.915	1980.89
514.271	2008.89
514.626	2014.89
514.981	1976.89
515.336	1956.89
515.691	1962.89
516.046	1977.89
516.401	1977.89
516.756	1936.89
517.111	1926.89
517.466	1936.89
517.821	1904.89
518.176	1930.89
518.531	1899.89
518.886	1885.89
519.24	1875.89
519.595	1869.89
519.95	1868.89
520.304	1844.89
520.659	1845.89
521.013	1826.89
521.368	1820.89
521.722	1813.89
522.077	1790.89
522.431	1798.89
522.785	1766.89
523.14	1789.89
523.494	1754.89
523.848	1773.89
524.202	1749.89
524.556	1724.89
524.91	1719.89
525.264	1733.89
525.618	1714.89
525.972	1679.89
526.326	1672.89
526.68	1685.89
527.034	1660.89
527.388	1647.89
527.742	1651.89
528.095	1629.89
528.449	1629.89
528.803	1596.89
529.156	1619.89
529.51	1583.89
529.863	1590.89
530.217	1572.89
530.57	1578.89
530.924	1546.89
531.277	1553.89
531.63	1533.89
531.983	1547.89
532.337	1531.89
532.69	1533.89
533.043	1499.89
533.396	1487.89
533.749	1482.89
534.102	1486.89
534.455	1450.89
534.808	1470.89
535.161	1437.89
535.514	1442.89
535.867	1415.89
536.22	1418.89
536.572	1400.89
536.925	1375.89
537.278	1371.89
537.63	1377.89
537.983	1360.89
538.336	1354.89
538.688	1348.89
539.041	1321.89
539.393	1321.89
539.745	1313.89
540.098	1310.89
540.45	1314.89
540.802	1301.89
541.155	1299.89
541.507	1277.89
541.859	1246.89
542.211	1261.89
542.563	1229.89
542.915	1245.89
543.267	1219.89
543.619	1208.89
543.971	1220.89
544.323	1189.89
544.675	1178.89
545.026	1179.89
545.378	1160.89
545.73	1166.89
546.081	1165.89
546.433	1150.89
546.785	1131.89
547.136	1130.89
547.488	1113.89
547.839	1084.89
548.19	1094.89
548.542	1084.89
548.893	1086.89
549.244	1060.89
549.596	1073.89
549.947	1068.89
550.298	1057.89
550.649	1031.89
551	1011.89
551.351	1017.89
551.702	995.89
552.053	1002.89
552.404	988.89
552.755	993.89
553.106	973.89
553.457	978.89
553.807	965.89
554.158	988.89
554.509	954.89
554.859	948.89
555.21	948.89
555.561	961.89
555.911	936.89
556.262	924.89
556.612	920.89
556.962	906.89
557.313	909.89
557.663	911.89
558.013	887.89
558.363	874.89
558.714	891.89
559.064	886.89
559.414	886.89
559.764	856.89
560.114	852.89
560.464	851.89
560.814	852.89
561.164	851.89
561.514	832.89
561.863	834.89
562.213	819.89
562.563	809.89
562.913	828.89
563.262	813.89
563.612	798.89
563.961	787.89
564.311	782.89
564.66	785.89
565.01	753.89
565.359	762.89
565.708	766.89
566.058	746.89
566.407	742.89
566.756	758.89
567.105	743.89
567.455	742.89
567.804	730.89
568.153	744.89
568.502	712.89
568.851	717.89
569.2	702.89
569.549	704.89
569.897	712.89
570.246	702.89
570.595	693.89
570.944	686.89
571.292	685.89
571.641	689.89
571.99	662.89
572.338	670.89
572.687	673.89
573.035	671.89
573.384	667.89
573.732	663.89
574.08	632.89
574.429	648.89
574.777	646.89
575.125	629.89
575.473	635.89
575.821	605.89
576.169	619.89
576.518	615.89
576.866	611.89
577.213	613.89
577.561	604.89
577.909	616.89
578.257	593.89
578.605	591.89
578.953	578.89
579.3	579.89
579.648	593.89
579.996	565.89
580.343	570.89
580.691	560.89
581.038	571.89
581.386	560.89
581.733	541.89
582.081	551.89
582.428	546.89
582.775	562.89
583.122	529.89
583.47	532.89
583.817	527.89
584.164	524.89
584.511	517.89
584.858	525.89
585.205	509.89
585.552	500.89
585.899	504.89
586.246	498.89
586.593	504.89
586.939	493.89
587.286	486.89
587.633	478.89
587.979	495.89
588.326	486.89
588.673	463.89
589.019	467.89
589.366	465.89
589.712	462.89
590.059	449.89
590.405	455.89
590.751	451.89
591.097	450.89
591.444	437.89
591.79	443.89
592.136	434.89
592.482	437.89
592.828	423.89
593.174	414.89
593.52	422.89
593.866	413.89
594.212	424.89
594.558	415.89
594.904	408.89
595.249	406.89
595.595	388.89
595.941	382.89
596.286	384.89
596.632	384.89
596.978	388.89
597.323	385.89
597.669	359.89
598.014	376.89
598.359	363.89
598.705	371.89
599.05	359.89
599.395	354.89
599.74	357.89
600.086	343.89
600.431	353.89
600.776	365.89
601.121	351.89
601.466	346.89
601.811	341.89
602.156	329.89
602.5	349.89
602.845	328.89
603.19	322.89
603.535	325.89
603.879	316.89
604.224	320.89
604.569	323.89
604.913	304.89
605.258	309.89
605.602	310.89
605.947	296.89
606.291	303.89
606.635	297.89
606.98	299.89
607.324	294.89
607.668	294.89
608.012	290.89
608.356	285.89
608.701	286.89
609.045	286.89
609.389	267.89
609.733	275.89
610.076	289.89
610.42	270.89
610.764	274.89
611.108	264.89
611.452	269.89
611.795	264.89
612.139	267.89
612.483	261.89
612.826	278.89
613.17	262.89
613.513	243.89
613.857	262.89
614.2	257.89
614.543	259.89
614.887	255.89
615.23	240.89
615.573	251.89
615.916	240.89
616.259	242.89
616.602	242.89
616.945	236.89
617.288	242.89
617.631	227.89
617.974	231.89
618.317	230.89
618.66	241.89
619.003	225.89
619.346	232.89
619.688	227.89
620.031	227.89
620.373	232.89
620.716	221.89
621.059	228.89
621.401	212.89
621.743	215.89
622.086	218.89
622.428	207.89
622.77	201.89
623.113	214.89
623.455	209.89
623.797	207.89
624.139	216.89
624.481	206.89
624.823	205.89
625.165	203.89
625.507	205.89
625.849	201.89
626.191	211.89
626.533	192.89
626.874	203.89
627.216	197.89
627.558	201.89
627.9	201.89
628.241	204.89
628.583	195.89
628.924	201.89
629.266	188.89
629.607	201.89
629.948	202.89
630.29	195.89
630.631	188.89
630.972	204.89
631.313	188.89
631.655	187.89
631.996	192.89
632.337	194.89
632.678	190.89
633.019	198.89
633.36	198.89
633.701	199.89
634.041	184.89
634.382	198.89
634.723	198.89
635.064	206.89
635.404	189.89
635.745	200.89
636.085	206.89
636.426	210.89
636.766	214.89
637.107	207.89
637.447	203.89
637.788	217.89
638.128	218.89
638.468	227.89
638.808	231.89
639.149	222.89
639.489	232.89
639.829	239.89
640.169	244.89
640.509	248.89
640.849	253.89
641.189	268.89
641.529	259.89
641.868	278.89
642.208	279.89
642.548	293.89
642.888	282.89
643.227	308.89
643.567	319.89
643.906	313.89
644.246	339.89
644.585	347.89
644.925	363.89
645.264	375.89
645.603	393.89
645.943	397.89
646.282	416.89
646.621	420.89
646.96	418.89
647.299	447.89
647.638	463.89
647.977	462.89
648.316	486.89
648.655	484.89
648.994	510.89
649.333	517.89
649.672	515.89
650.01	528.89
650.349	554.89
650.688	550.89
651.026	557.89
651.365	555.89
651.703	573.89
652.042	586.89
652.38	583.89
652.719	629.89
653.057	619.89
653.395	633.89
653.734	661.89
654.072	657.89
654.41	675.89
654.748	677.89
655.086	704.89
655.424	715.89
655.762	730.89
656.1	745.89
656.438	763.89
656.776	774.89
657.113	788.89
657.451	809.89
657.789	827.89
658.127	841.89
658.464	856.89
658.802	858.89
659.139	877.89
659.477	868.89
659.814	903.89
660.152	901.89
660.489	930.89
660.826	920.89
661.163	947.89
661.501	925.89
661.838	958.89
662.175	953.89
662.512	943.89
662.849	958.89
663.186	948.89
663.523	929.89
663.86	954.89
664.197	934.89
664.533	909.89
664.87	928.89
665.207	922.89
665.543	896.89
665.88	912.89
666.217	889.89
666.553	897.89
666.89	881.89
667.226	892.89
667.562	868.89
667.899	854.89
668.235	869.89
668.571	845.89
668.907	850.89
669.244	840.89
669.58	830.89
669.916	838.89
670.252	817.89
670.588	832.89
670.924	828.89
671.26	815.89
671.595	782.89
671.931	817.89
672.267	798.89
672.603	781.89
672.938	784.89
673.274	794.89
673.609	779.89
673.945	753.89
674.28	760.89
674.616	745.89
674.951	739.89
675.286	728.89
675.622	731.89
675.957	702.89
676.292	680.89
676.627	680.89
676.962	670.89
677.297	653.89
677.632	653.89
677.967	626.89
678.302	607.89
678.637	601.89
678.972	579.89
679.307	566.89
679.641	547.89
679.976	548.89
680.311	521.89
680.645	501.89
680.98	506.89
681.314	495.89
681.649	473.89
681.983	445.89
682.318	430.89
682.652	420.89
682.986	403.89
683.32	394.89
683.655	391.89
683.989	397.89
684.323	362.89
684.657	364.89
684.991	348.89
685.325	340.89
685.659	324.89
685.992	316.89
686.326	303.89
686.66	309.89
686.994	295.89
687.327	279.89
687.661	277.89
687.994	291.89
688.328	266.89
688.661	258.89
688.995	258.89
689.328	242.89
689.662	238.89
689.995	234.89
690.328	232.89
690.661	227.89
690.994	231.89
691.328	213.89
691.661	215.89
691.994	223.89
692.327	212.89
692.659	197.89
692.992	195.89
693.325	198.89
693.658	195.89
693.991	174.89
694.323	194.89
694.656	183.89
694.988	185.89
695.321	172.89
695.654	175.89
695.986	180.89
696.318	159.89
696.651	167.89
696.983	173.89
697.315	164.89
697.647	176.89
697.98	166.89
698.312	155.89
698.644	153.89
698.976	162.89
699.308	152.89
699.64	147.89
699.972	153.89
700.303	145.89
700.635	159.89
700.967	156.89
701.299	149.89
701.63	150.89
701.962	147.89
702.293	144.89
702.625	150.89
702.956	147.89
703.288	153.89
703.619	137.89
703.95	135.89
704.282	145.89
704.613	138.89
704.944	147.89
705.275	136.89
705.606	149.89
705.937	141.89
706.268	152.89
706.599	143.89
706.93	144.89
707.261	137.89
707.592	142.89
707.922	139.89
708.253	143.89
708.584	139.89
708.914	135.89
709.245	144.89
709.575	127.89
709.906	132.89
710.236	130.89
710.567	143.89
710.897	133.89
711.227	132.89
711.558	138.89
711.888	140.89
712.218	143.89
712.548	132.89
712.878	131.89
713.208	138.89
713.538	120.89
713.868	127.89
714.198	130.89
714.527	126.89
714.857	127.89
715.187	130.89
715.516	124.89
715.846	126.89
716.176	117.89
716.505	131.89
716.835	118.89
717.164	123.89
717.493	122.89
717.823	119.89
718.152	120.89
718.481	113.89
718.81	113.89
719.139	119.89
719.469	124.89
719.798	110.89
720.127	114.89
720.455	116.89
720.784	118.89
721.113	124.89
721.442	110.89
721.771	113.89
722.099	110.89
722.428	102.89
722.757	104.89
723.085	108.89
723.414	103.89
723.742	101.89
724.071	90.89
724.399	99.89
724.727	99.89
725.055	98.89
725.384	87.89
725.712	95.89
726.04	100.89
726.368	99.89
726.696	90.89
727.024	87.89
727.352	89.89
727.68	96.89
728.008	91.89
728.335	87.89
728.663	77.89
728.991	87.89
729.318	90.89
729.646	82.89
729.974	82.89
730.301	87.89
730.629	73.89
730.956	78.89
731.283	87.89
731.611	80.89
731.938	84.89
732.265	73.89
732.592	77.89
732.919	75.89
733.246	68.89
733.573	69.89
733.9	76.89
734.227	68.89
734.554	73.89
734.881	72.89
735.208	68.89
735.534	64.89
735.861	64.89
736.188	61.89
736.514	54.89
736.841	61.89
737.167	64.89
737.494	59.89
737.82	66.89
738.146	54.89
738.473	56.89
738.799	67.89
739.125	60.89
739.451	51.89
739.777	54.89
740.103	57.89
740.429	49.89
740.755	59.89
741.081	57.89
741.407	52.89
741.733	57.89
742.058	49.89
742.384	49.89
742.71	38.89
743.035	46.89
743.361	44.89
743.686	44.89
744.012	35.89
744.337	41.89
744.662	37.89
744.988	36.89
745.313	39.89
745.638	37.89
745.963	30.89
746.288	42.89
746.614	34.89
746.939	42.89
747.263	33.89
747.588	36.89
747.913	43.89
748.238	33.89
748.563	41.89
748.888	14.89
749.212	24.89
749.537	40.89
749.861	28.89
750.186	28.89
750.51	27.89
750.835	33.89
751.159	29.89
751.483	34.89
751.808	27.89
752.132	28.89
752.456	35.89
752.78	20.89
753.104	37.89
753.428	25.89
753.752	27.89
754.076	24.89
754.4	28.89
754.724	29.89
755.048	18.89
755.371	15.89
755.695	35.89
756.019	11.89
756.342	21.89
756.666	25.89
756.989	17.89
757.313	35.89
757.636	24.89
757.959	31.89
758.283	24.89
758.606	17.89
758.929	13.89
759.252	12.89
759.575	28.89
759.898	22.89
760.221	19.89
760.544	24.89
760.867	16.89
761.19	25.89
761.513	20.89
761.835	10.89
762.158	18.89
762.481	13.89
762.803	16.89
763.126	20.89
763.448	17.89
763.771	12.89
764.093	20.89
764.416	11.89
764.738	16.89
765.06	18.89
765.382	11.89
765.704	25.89
766.026	15.89
766.348	18.89
766.67	14.89
766.992	13.89
767.314	14.89
767.636	14.89
767.958	11.89
768.28	17.89
768.601	18.89
768.923	15.89
769.245	18.89
769.566	15.89
769.888	9.89
770.209	3.89
770.53	6.89
770.852	8.89
771.173	16.89
771.494	12.89
771.815	14.89
772.137	14.89
772.458	2.89
772.779	8.89
773.1	14.89
773.421	-0.11
773.742	15.89
774.062	18.89
774.383	8.89
774.704	15.89
775.025	19.89
775.345	10.89
775.666	-1.11
775.986	9.89
776.307	3.89
776.627	12.89
776.948	5.89
777.268	15.89
777.588	15.89
777.908	16.89
778.229	3.89
778.549	12.89
778.869	8.89
779.189	25.89
779.509	3.89
779.829	1.89
780.149	14.89
780.468	14.89
780.788	13.89
781.108	14.89
781.428	6.89
781.747	15.89
782.067	14.89
782.386	10.89
782.706	5.89
783.025	7.89
783.345	13.89
783.664	5.89
783.983	17.89
784.302	8.89
784.622	6.89
784.941	9.89
785.26	-1.11
785.579	11.89
785.898	4.89
786.217	7.89
786.536	2.89
786.854	8.89
787.173	13.89
787.492	6.89
787.811	6.89
788.129	7.89
788.448	4.89
788.766	3.89
789.085	5.89
789.403	0.89
789.721	11.89
790.04	5.89
790.358	1.89
790.676	-1.11
790.994	3.89
791.312	3.89
791.63	2.89
791.948	7.89
792.266	1.89
792.584	0.89
792.902	5.89
793.22	9.89
793.538	-0.11
793.855	6.89
794.173	5.89
794.491	5.89
794.808	3.89
795.126	4.89
795.443	5.89
795.76	3.89
796.078	9.89
796.395	6.89
796.712	7.89
797.03	5.89
797.347	5.89
797.664	2.89
797.981	2.89
798.298	-0.11
798.615	13.89
798.932	0.89
799.248	-4.11
799.565	1.89
799.882	3.89
800.199	0.89
800.515	4.89
800.832	5.89
801.148	9.89
801.465	9.89
801.781	3.89
802.097	-2.11
802.414	7.89
802.73	1.89
803.046	5.89
803.362	-0.11
803.678	6.89
803.995	1.89
804.311	-8.11
804.626	2.89
804.942	1.89
805.258	2.89
805.574	3.89
805.89	1.89
806.205	4.89
806.521	-0.11
806.837	4.89
807.152	8.89
807.468	10.89
807.783	7.89
808.099	2.89
808.414	6.89
808.729	5.89
809.044	-2.11
809.36	7.89
809.675	0.89
809.99	8.89
810.305	6.89
810.62	7.89
810.935	-3.11
811.249	7.89
811.564	3.89
811.879	1.89
812.194	7.89
812.508	-0.11
812.823	3.89
813.138	-1.11
813.452	-1.11
813.767	0.89
814.081	-0.11
814.395	10.89
814.71	9.89
815.024	3.89
815.338	3.89
815.652	0.89
815.966	9.89
816.28	-0.11
816.594	-3.11
816.908	-3.11
817.222	11.89
817.536	-3.11
817.85	-3.11
818.163	-3.11
818.477	-10.11
818.791	1.89
819.104	-7.11
819.418	-3.11
819.731	-0.11
820.045	-1.11
820.358	-4.11
820.671	2.89
820.984	-5.11
821.298	6.89
821.611	12.89
821.924	-4.11
822.237	8.89
822.55	-7.11
822.863	5.89
823.176	0.89
823.489	-3.11
823.801	0.89
824.114	2.89
824.427	1.89
824.739	-2.11
825.052	1.89
825.364	-7.11
825.677	-1.11
825.989	-1.11
826.302	-0.11
826.614	-0.11
826.926	-7.11
827.238	-0.11
827.551	-0.11
827.863	1.89
828.175	5.89
828.487	2.89
828.799	0.89
829.111	-7.11
829.422	-1.11
829.734	2.89
830.046	-5.11
830.358	-4.11
830.669	0.89
830.981	-1.11
831.292	1.89
831.604	8.89
831.915	-0.11
832.226	13.89
832.538	-5.11
832.849	-4.11
833.16	4.89
833.471	-6.11
833.782	-0.11
834.094	-8.11
834.405	-3.11
834.715	2.89
835.026	0.89
835.337	-0.11
835.648	-4.11
835.959	-6.11
836.269	-5.11
836.58	-7.11
836.891	-4.11
837.201	-7.11
837.511	-2.11
837.822	4.89
838.132	-6.11
838.443	-1.11
838.753	-7.11
839.063	-5.11
839.373	-0.11
839.683	4.89
839.993	1.89
840.303	6.89
840.613	4.89
840.923	1.89
841.233	-10.11
841.543	-5.11
841.852	-8.11
842.162	-5.11
842.472	-0.11
842.781	-2.11
843.091	-3.11
843.4	-4.11
843.71	3.89
844.019	4.89
844.328	7.89
844.637	-4.11
844.947	3.89
845.256	-0.11
845.565	-6.11
845.874	-1.11
846.183	-8.11
846.492	-2.11
846.801	2.89
847.109	-7.11
847.418	-1.11
847.727	-1.11
848.035	0.89
848.344	-2.11
848.653	-6.11
848.961	6.89
849.27	-9.11
849.578	-0.11
849.886	9.89
850.194	-5.11
850.503	0.89
850.811	4.89
851.119	-3.11
851.427	2.89
851.735	-1.11
852.043	3.89
852.351	4.89
852.659	-4.11
852.967	-0.11
853.274	-0.11
853.582	-2.11
853.89	-0.11
854.197	1.89
854.505	5.89
854.812	-1.11
855.12	2.89
855.427	2.89
855.734	-3.11
856.042	0.89
856.349	-3.11
856.656	-0.11
856.963	-0.11
857.27	-0.11
857.577	-0.11
857.884	1.89
858.191	-4.11
858.498	9.89
858.804	-1.11
859.111	5.89
859.418	-7.11
859.724	-1.11
860.031	4.89
860.337	-2.11
860.644	1.89
860.95	0.89
861.257	6.89
861.563	3.89
861.869	3.89
862.175	-1.11
862.481	0.89
862.787	-4.11
863.093	-2.11
863.399	4.89
863.705	0.89
864.011	-3.11
864.317	-12.11
864.623	-1.11
864.928	-2.11
865.234	-1.11
865.54	14.89
865.845	4.89
866.151	2.89
866.456	-1.11
866.761	-3.11
867.067	-2.11
867.372	2.89
867.677	-8.11
867.982	-3.11
868.287	2.89
868.592	-9.11
868.897	-1.11
869.202	-1.11
869.507	-2.11
869.812	0.89
870.117	-5.11
870.421	-1.11
870.726	-2.11
871.031	-4.11
871.335	-8.11
871.64	-5.11
871.944	-5.11
872.249	6.89
872.553	-5.11
872.857	-8.11
873.161	-2.11
873.465	-5.11
873.77	-4.11
874.074	1.89
874.378	9.89
874.682	-7.11
874.985	-5.11
875.289	-2.11
875.593	5.89
875.897	-4.11
876.2	4.89
876.504	-2.11
876.808	5.89
877.111	-0.11
877.415	10.89
877.718	-7.11
878.021	-2.11
878.325	-1.11
878.628	-6.11
878.931	-3.11
879.234	-2.11
879.537	1.89
879.84	-5.11
880.143	9.89
880.446	-2.11
880.749	-6.11
881.052	-2.11
881.354	-6.11
881.657	2.89
881.96	1.89
882.262	-6.11
882.565	2.89
882.867	-3.11
883.17	-1.11
883.472	-0.11
883.774	-3.11
884.077	-8.11
884.379	4.89
884.681	-0.11
884.983	-8.11
885.285	0.89
885.587	5.89
885.889	-2.11
886.191	-0.11
886.493	-3.11
886.794	1.89
887.096	3.89
887.398	8.89
887.699	-9.11
888.001	2.89
888.302	-1.11
888.604	-0.11
888.905	0.89
889.206	-2.11
889.507	-7.11
889.809	3.89
890.11	2.89
890.411	-6.11
890.712	7.89
891.013	5.89
891.314	5.89
891.615	-5.11
891.915	-1.11
892.216	4.89
892.517	-1.11
892.818	-4.11
893.118	3.89
893.419	7.89
893.719	-1.11
894.02	3.89
894.32	-5.11
894.62	1.89
894.92	-5.11
895.221	-6.11
895.521	0.89
895.821	-6.11
896.121	1.89
896.421	-1.11
896.721	-2.11
897.021	-1.11
897.32	2.89
897.62	0.89
897.92	-3.11
898.219	-6.11
898.519	-1.11
898.819	-2.11
899.118	1.89
899.417	7.89
899.717	-10.11
900.016	-0.11
900.315	-0.11
900.615	-2.11
900.914	7.89
901.213	8.89
901.512	-6.11
901.811	-2.11
902.11	-1.11
902.409	3.89
902.707	-13.11
903.006	-0.11
903.305	-3.11
903.603	-4.11
903.902	-0.11
904.2	-5.11
904.499	9.89
904.797	3.89
905.096	1.89
905.394	-0.11
905.692	-2.11
905.99	1.89
906.288	-3.11
906.587	-6.11
906.885	-3.11
907.183	-1.11
907.48	-4.11
907.778	-4.11
908.076	-1.11
908.374	-1.11
908.671	-7.11
908.969	3.89
909.267	-3.11
909.564	0.89
909.862	5.89
910.159	5.89
910.456	-28.11
910.754	5.89
911.051	-7.11
911.348	2.89
911.645	-2.11
911.942	3.89
912.239	-7.11
912.536	-3.11
912.833	-8.11
913.13	-13.11
913.427	-4.11
913.723	-1.11
914.02	-1.11
914.317	2.89
914.613	0.89
914.91	1.89
915.206	-0.11
915.502	-7.11
915.799	-1.11
916.095	6.89
916.391	-2.11
916.687	-1.11
916.983	-11.11
917.279	1.89
917.575	-2.11
917.871	-0.11
918.167	-1.11
918.463	-0.11
918.759	1.89
919.054	-0.11
919.35	0.89
919.646	-4.11
919.941	5.89
920.237	-3.11
920.532	-5.11
920.827	-6.11
921.123	1.89
921.418	-10.11
921.713	-0.11
922.008	-4.11
922.303	-2.11
922.598	-0.11
922.893	-12.11
923.188	-1.11
923.483	-3.11
923.778	8.89
924.073	0.89
924.367	6.89
924.662	-1.11
924.956	-2.11
925.251	1.89
925.545	-4.11
925.84	-5.11
926.134	-6.11
926.428	-11.11
926.723	-3.11
927.017	4.89
927.311	0.89
927.605	-8.11
927.899	2.89
928.193	-1.11
928.487	-3.11
928.781	2.89
929.074	-6.11
929.368	-3.11
929.662	9.89
929.955	3.89
930.249	8.89
930.542	4.89
930.836	-5.11
931.129	-2.11
931.422	-0.11
931.716	-3.11
932.009	-8.11
932.302	-4.11
932.595	-4.11
932.888	-7.11
933.181	-1.11
933.474	-6.11
933.767	-0.11
934.059	-10.11
934.352	0.89
934.645	-6.11
934.937	5.89
935.23	-0.11
935.522	3.89
935.815	-11.11
936.107	4.89
936.4	0.89
936.692	0.89
936.984	1.89
937.276	-1.11
937.568	1.89
937.86	-5.11
938.152	1.89
938.444	-2.11
938.736	3.89
939.028	-3.11
939.32	3.89
939.611	-1.11
939.903	-7.11
940.195	-1.11
940.486	2.89
940.778	3.89
941.069	-3.11
941.36	-6.11
941.652	-1.11
941.943	2.89
942.234	-15.11
942.525	-2.11
942.816	2.89
943.107	-3.11
943.398	0.89
943.689	-8.11
943.98	3.89
944.271	-1.11
944.561	4.89
944.852	-6.11
945.143	2.89
945.433	-2.11
945.724	4.89
946.014	-5.11
946.304	-3.11
946.595	-0.11
946.885	-4.11
947.175	-1.11
947.465	0.89
947.755	-0.11
948.045	-12.11
948.335	7.89
948.625	-2.11
948.915	8.89
949.205	5.89
949.494	-5.11
949.784	-1.11
950.074	3.89
950.363	3.89
950.653	-1.11
950.942	-0.11
951.232	-2.11
951.521	-8.11
951.81	1.89
952.099	-0.11
952.388	1.89
952.677	-5.11
952.967	-5.11
953.255	3.89
953.544	0.89
953.833	4.89
954.122	-8.11
954.411	-3.11
954.699	-8.11
954.988	-3.11
955.277	1.89
955.565	-3.11
955.854	3.89
956.142	-1.11
956.43	-2.11
956.718	1.89
957.007	1.89
957.295	3.89
957.583	7.89
957.871	-2.11
958.159	-8.11
958.447	-5.11
958.735	-3.11
959.022	-2.11
959.31	2.89
959.598	-7.11
959.885	1.89
960.173	6.89
960.461	4.89
960.748	-1.11
961.035	0.89
961.323	0.89
961.61	-6.11
961.897	-1.11
962.184	2.89
962.471	-4.11
962.758	-6.11
963.045	1.89
963.332	-0.11
963.619	-8.11
963.906	-2.11
964.193	-6.11
964.479	4.89
964.766	-2.11
965.052	6.89
965.339	6.89
965.625	-1.11
965.912	0.89
966.198	3.89
966.484	5.89
966.771	5.89
967.057	-1.11
967.343	1.89
967.629	2.89
967.915	0.89
968.201	-1.11
968.487	-5.11
968.772	-5.11
969.058	-3.11
969.344	-1.11
969.629	-2.11
969.915	-4.11
970.2	-0.11
970.486	0.89
970.771	-2.11
971.057	6.89
971.342	1.89
971.627	0.89
971.912	-7.11
972.197	-11.11
972.482	5.89
972.767	-6.11
973.052	-1.11
973.337	2.89
973.622	-5.11
973.906	-1.11
974.191	2.89
974.476	1.89
974.76	3.89
975.045	3.89
975.329	-1.11
975.614	-1.11
975.898	-1.11
976.182	-9.11
976.466	-6.11
976.75	-4.11
977.034	0.89
977.319	0.89
977.602	-4.11
977.886	-0.11
978.17	-5.11
978.454	-5.11
978.738	-6.11
979.021	-5.11
979.305	0.89
979.588	7.89
979.872	-6.11
980.155	-0.11
980.439	-2.11
980.722	0.89
981.005	-1.11
981.288	12.89
981.571	-0.11
981.855	-7.11
982.138	-1.11
982.42	1.89
982.703	3.89
982.986	-5.11
983.269	0.89
983.552	-0.11
983.834	3.89
984.117	-2.11
984.399	-0.11
984.682	1.89
984.964	-4.11
985.247	-2.11
985.529	10.89
985.811	-0.11
986.093	6.89
986.375	-3.11
986.657	-4.11
986.939	-3.11
987.221	-0.11
987.503	4.89
987.785	1.89
988.067	-4.11
988.348	-1.11
988.63	-3.11
988.911	0.89
989.193	-4.11
989.474	-3.11
989.756	-3.11
990.037	-1.11
990.318	-5.11
990.6	-2.11
990.881	-4.11
991.162	-8.11
991.443	-9.11
991.724	7.89
992.005	0.89
992.285	4.89
992.566	4.89
992.847	4.89
993.128	-0.11
993.408	0.89
993.689	1.89
993.969	-4.11
994.25	-1.11
994.53	-4.11
994.81	-1.11
995.091	-4.11
995.371	-4.11
995.651	-0.11
995.931	-1.11
996.211	-3.11
996.491	2.89
996.771	-5.11
997.05	-2.11
997.33	5.89
997.61	1.89
997.889	4.89
998.169	1.89
998.449	-4.11
998.728	-0.11
999.007	4.89
999.287	-4.11
999.566	-1.11
999.845	-2.11
1000.124	0.89
1000.403	-3.11
1000.682	-5.11
1000.961	-9.11
1001.24	2.89
1001.519	-0.11
1001.798	1.89
1002.077	-1.11
1002.355	-0.11
1002.634	-7.11
1002.912	-0.11
1003.191	-4.11
1003.469	4.89
1003.748	-0.11
1004.026	3.89
1004.304	-1.11
1004.582	-2.11
1004.86	2.89
1005.138	1.89
1005.416	-1.11
1005.694	-9.11
1005.972	-10.11
1006.25	0.89
1006.528	3.89
1006.806	-4.11
1007.083	-1.11
1007.361	1.89
1007.638	-3.11
1007.916	-1.11
1008.193	-0.11
1008.47	-0.11
1008.748	-2.11
1009.025	3.89
1009.302	-8.11
1009.579	-2.11
1009.856	-0.11
1010.133	0.89
1010.41	-0.11
1010.687	-0.11
1010.963	-8.11
1011.24	-1.11
1011.517	4.89
1011.793	-1.11
1012.07	-3.11
1012.346	5.89
1012.623	-1.11
1012.899	3.89
1013.175	-5.11
1013.452	-1.11
1013.728	0.89
1014.004	-9.11
